Time,volts,current,watts,amp_hour,watt_hour
1518673964.7334168,4.019,30.0,120.57,0.010444255669911702,0
1518673966.2375035,4.014,30.0,120.42,0.022978325684865315,0
1518673971.4935324,4.002,30.0,120.06,0.06677856047948201,0
1518673976.7476637,3.993,30.001,119.793,0.1105644476032257,0
1518673982.0038555,3.986,30.0,119.58,0.15436604734420775,0
1518673987.2608862,3.98,30.0,119.4,0.19817463473637897,0
1518673992.5184438,3.975,30.0,119.25,0.24198761300404864,0
1518673997.7750053,3.97,30.001,119.103,0.28579375446120897,0
1518674003.031203,3.966,30.001,118.983,0.329596861940821,0
1518674008.2874355,3.962,30.001,118.863,0.3734002595060401,0
1518674013.5445263,3.958,30.0,118.74,0.4172093495640489,0
1518674018.7979395,3.955,30.001,118.653,0.46098925019509257,0
1518674024.055313,3.952,30.001,118.563,0.5048021570049391,0
1518674029.311837,3.949,30.001,118.473,0.5486079845338397,0
1518674034.5690236,3.946,30.001,118.383,0.5924193415712647,0
1518674039.8260014,3.944,30.0,118.32,0.6362274878890646,0
1518674045.0813513,3.941,30.001,118.233,0.6800235319828324,0
1518674050.3335197,3.939,30.001,118.173,0.7237930531124273,0
1518674055.5900111,3.937,30.001,118.113,0.7675986084377102,0
1518674060.8471515,3.935,30.001,118.053,0.8114095720713668,0
1518674066.100643,3.933,30.001,117.993,0.8551901263884703,0
1518674071.3576167,3.931,30.001,117.933,0.8989996972138351,0
1518674076.6135485,3.929,30.001,117.873,0.9428005932874148,0
1518674081.8684733,3.927,30.001,117.813,0.9865930907866026,0
1518674087.1254613,3.925,30.001,117.753,1.030402784799006,0
1518674092.3824112,3.923,30.001,117.693,1.0742121648831497,0
1518674097.6389992,3.921,30.001,117.633,1.1180185229110715,0
1518674102.896306,3.919,30.001,117.573,1.1618308733923566,0
1518674108.1527798,3.918,30.001,117.543,1.2056362797010605,0
1518674113.4105437,3.916,30.001,117.483,1.2494524410329921,0
1518674118.6679711,3.914,30.001,117.423,1.2932657948925756,0
1518674123.9249263,3.912,30.001,117.363,1.3370752167013615,0
1518674129.182035,3.911,30.001,117.333,1.3808859240265021,0
1518674134.436973,3.909,30.001,117.273,1.4246785248438514,0
1518674139.693521,3.907,30.001,117.213,1.4684845609959625,0
1518674144.9512079,3.906,30.001,117.183,1.512300078576273,0
1518674150.2075527,3.904,30.001,117.123,1.55610420135551,0
1518674155.4606268,3.902,30.001,117.063,1.5998814792947633,0
1518674160.7131207,3.901,30.001,117.033,1.6436537204736468,0
1518674165.9705565,3.899,30.001,116.973,1.6874671577825144,0
1518674171.2248776,3.897,30.001,116.913,1.7312546224951078,0
1518674176.4789329,3.896,30.001,116.883,1.7750398698410057,0
1518674181.7309053,3.894,30.001,116.823,1.8188077656964456,0
1518674186.9881232,3.893,30.001,116.793,1.8626193671210602,0
1518674192.2399406,3.891,30.001,116.733,1.9063859794470333,0
1518674197.4944034,3.889,30.001,116.673,1.9501746303315952,0
1518674202.7482276,3.888,30.001,116.643,1.9939579662915066,0
1518674208.0052338,3.886,30.001,116.583,2.0377678013729383,0
1518674213.2628086,3.885,30.001,116.553,2.0815823851160205,0
1518674218.5171418,3.883,30.001,116.493,2.125369955133663,0
1518674223.7727127,3.882,30.001,116.463,2.169167841072347,0
1518674229.0253172,3.88,30.001,116.403,2.212941000193357,0
1518674234.2824159,3.878,30.001,116.343,2.2567516181085505,0
1518674239.5384724,3.877,30.001,116.313,2.3005535553112955,0
1518674244.7956085,3.875,30.002,116.257,2.3443659355487423,0
1518674250.0521047,3.874,30.001,116.223,2.388171532598667,0
1518674255.3094516,3.872,30.001,116.163,2.431984216877089,0
1518674260.5665948,3.871,30.001,116.133,2.4757952043533984,0
1518674265.822871,3.869,30.001,116.073,2.5195989655190703,0
1518674271.0770357,3.868,30.001,116.043,2.5633851308070947,0
1518674276.334693,3.866,30.001,115.983,2.60720040002644,0
1518674281.5907955,3.865,30.001,115.953,2.651002712750964,0
1518674286.844844,3.863,30.001,115.893,2.6947879143984443,0
1518674292.102984,3.861,30.001,115.833,2.738607203091647,0
1518674297.3592958,3.86,30.001,115.803,2.782411266264252,0
1518674302.612157,3.858,30.001,115.743,2.8261865712239995,0
1518674307.869626,3.857,30.001,115.713,2.8700002688151587,0
1518674313.1265206,3.856,30.001,115.683,2.9138091859544635,0
1518674318.383734,3.854,30.001,115.623,2.9576207555888745,0
1518674323.6411266,3.852,30.001,115.563,3.0014338213497385,0
1518674328.8973916,3.851,30.001,115.533,3.045237495092351,0
1518674334.1540935,3.849,30.001,115.473,3.0890447988788274,0
1518674339.4092574,3.848,30.001,115.443,3.1328392932001736,0
1518674344.6648593,3.846,30.001,115.383,3.1766374354473736,0
1518674349.9210365,3.845,30.001,115.353,3.2204403740415293,0
1518674355.17802,3.843,30.001,115.293,3.2642500283161784,0
1518674360.4353318,3.842,30.001,115.263,3.3080624205221056,0
1518674365.6917508,3.84,30.001,115.203,3.351867369846634,0
1518674370.948558,3.839,30.002,115.177,3.3956770180224036,0
1518674376.205238,3.837,30.001,115.113,3.439484146962761,0
1518674381.4578044,3.836,30.001,115.083,3.483256992155511,0
1518674386.7122912,3.834,30.001,115.023,3.5270458377550695,0
1518674391.9689102,3.833,30.001,114.993,3.570852462025946,0
1518674397.2253485,3.831,30.001,114.933,3.614657570301492,0
1518674402.4815488,3.83,30.001,114.903,3.6584607075844198,0
1518674407.7386882,3.828,30.001,114.843,3.7022716553229746,0
1518674412.9927917,3.827,30.001,114.813,3.7460573119677427,0
1518674418.2492194,3.825,30.001,114.753,3.7898623367940045,0
1518674423.505771,3.824,30.001,114.723,3.833668394801881,0
1518674428.7624152,3.822,30.001,114.663,3.877475219748417,0
1518674434.0184925,3.821,30.001,114.633,3.9212773218628425,0
1518674439.2729495,3.819,30.001,114.573,3.9650659250620994,0
1518674444.53088,3.818,30.001,114.543,4.00888347324166,0
1518674449.7858198,3.816,30.001,114.483,4.05267609988855,0
1518674455.0430725,3.815,30.001,114.453,4.096487999346323,0
1518674460.2990885,3.813,30.001,114.393,4.14028959480438,0
1518674465.5566905,3.812,30.001,114.363,4.184104401078887,0
1518674470.8124127,3.81,30.001,114.303,4.227903548691273,0
1518674476.0695078,3.809,30.001,114.273,4.271714132829375,0
1518674481.327511,3.808,30.001,114.243,4.315532288996578,0
1518674486.5800838,3.806,30.001,114.183,4.359305187835297,0
1518674491.8365955,3.804,30.001,114.123,4.403110919993587,0
1518674497.0905075,3.803,30.001,114.093,4.446894971233077,0
1518674502.3446183,3.802,30.001,114.063,4.490680697418916,0
1518674507.5970798,3.8,30.001,114.003,4.5344526584466305,0
1518674512.854287,3.799,30.001,113.973,4.5782641764219605,0
1518674518.110948,3.797,30.001,113.913,4.622071148398188,0
1518674523.367108,3.796,30.001,113.883,4.665873949897091,0
1518674528.6233115,3.794,30.001,113.823,4.709677097114458,0
1518674533.8800359,3.793,30.001,113.793,4.753484589655268,0
1518674539.1336002,3.791,30.001,113.733,4.797265755933789,0
1518674544.3900387,3.79,30.001,113.703,4.841070870169998,0
1518674549.646843,3.788,30.001,113.643,4.884879032291969,0
1518674554.903866,3.787,30.001,113.613,4.9286890183768675,0
1518674560.1606557,3.786,30.001,113.583,4.9724970573118,0
1518674565.4169579,3.784,30.001,113.523,5.016301035048234,0
1518674570.6737874,3.783,30.001,113.493,5.0601094077803035,0
1518674575.9314013,3.781,30.001,113.433,5.103924317372972,0
1518674581.1844573,3.78,30.001,113.403,5.147701243633098,0
1518674586.4415438,3.778,30.001,113.343,5.191511768164569,0
1518674591.6982849,3.777,30.001,113.313,5.235319403761294,0
1518674596.9556956,3.775,30.001,113.253,5.279132608604299,0
1518674602.2133372,3.774,30.001,113.223,5.322947752649719,0
1518674607.4703255,3.773,30.001,113.193,5.36675744864901,0
1518674612.727119,3.771,30.001,113.133,5.410565519374146,0
1518674617.9787142,3.77,30.001,113.103,5.454330273960101,0
1518674623.2327218,3.768,30.001,113.043,5.498115129889118,0
1518674628.4899294,3.767,30.001,113.013,5.541926651838224,0
1518674633.748415,3.765,30.001,112.953,5.585748825492397,0
1518674639.0050602,3.764,30.001,112.923,5.629555664347147,0
1518674644.26237,3.762,30.001,112.863,5.673368040657972,0
1518674649.5200515,3.761,30.001,112.833,5.717183512539865,0
1518674654.7724621,3.759,30.001,112.773,5.760955062281822,0
1518674660.030766,3.758,30.001,112.743,5.804775719940665,0
1518674665.2896736,3.757,30.001,112.713,5.8486014083992135,0
1518674670.5442219,3.755,30.001,112.653,5.892390772576467,0
1518674675.801101,3.754,30.001,112.623,5.936199558581182,0
1518674681.0590541,3.752,30.001,112.563,5.980017295515076,0
1518674686.316639,3.751,30.001,112.533,6.023831962707442,0
1518674691.5733147,3.75,30.001,112.503,6.067639053896933,0
1518674696.8299007,3.748,30.001,112.443,6.111445396029753,0
1518674702.087587,3.747,30.001,112.413,6.155260919570726,0
1518674707.340845,3.745,30.001,112.353,6.199039528724752,0
1518674712.5971835,3.744,30.001,112.323,6.242843792573017,0
1518674717.8482277,3.742,30.001,112.263,6.286603967382777,0
1518674723.1018,3.741,30.001,112.233,6.330385189294154,0
1518674728.3560889,3.739,30.001,112.173,6.374172389750681,0
1518674733.6159751,3.738,30.001,112.143,6.418006236370208,0
1518674738.874175,3.736,30.001,112.083,6.461826031719779,0
1518674744.134285,3.735,30.001,112.053,6.5056617400531,0
1518674749.390871,3.734,30.001,112.023,6.5494680841728075,0
1518674754.6490364,3.732,30.001,111.963,6.593287587449884,0
1518674759.9057128,3.731,30.001,111.933,6.637094686586925,0
1518674765.16373,3.729,30.001,111.873,6.680912956006728,0
1518674770.4200563,3.728,30.001,111.843,6.724717134418821,0
1518674775.6714773,3.726,30.001,111.783,6.7684804365898525,0
1518674780.9286623,3.725,30.001,111.753,6.812291771771513,0
1518674786.186454,3.724,30.001,111.723,6.8561081635824195,0
1518674791.4429474,3.722,30.001,111.663,6.899913742750355,0
1518674796.701015,3.721,30.001,111.633,6.943732421469028,0
1518674801.957313,3.719,30.001,111.573,6.987536369402146,0
1518674807.209833,3.718,30.001,111.543,7.031308825164903,0
1518674812.467457,3.717,30.001,111.513,7.075123820193743,0
1518674817.722438,3.715,30.001,111.453,7.11891678858532,0
1518674822.9780438,3.713,30.001,111.393,7.162714962622724,0
1518674828.2357576,3.712,30.001,111.363,7.206530706708235,0
1518674833.4928331,3.711,30.001,111.333,7.250341129908431,0
1518674838.7477748,3.709,30.001,111.273,7.294133776424198,0
1518674843.9989786,3.708,30.001,111.243,7.337895268540517,0
1518674849.2530208,3.706,30.001,111.183,7.381680404620703,0
1518674854.5049558,3.705,30.001,111.153,7.4254479865478835,0
1518674859.7615497,3.704,30.001,111.123,7.469254398221774,0
1518674865.0164871,3.702,30.001,111.063,7.513047001026011,0
1518674870.2688527,3.701,30.001,111.033,7.556818175246189,0
1518674875.5250566,3.699,30.001,110.973,7.600621328424219,0
1518674880.7820857,3.698,30.001,110.943,7.644431378089524,0
1518674886.0367997,3.696,30.001,110.883,7.688222113219305,0
1518674891.2922184,3.695,30.001,110.853,7.73201872556296,0
1518674896.5500317,3.693,30.001,110.793,7.77583529818065,0
1518674901.8079019,3.692,30.001,110.763,7.8196523416907295,0
1518674907.066112,3.691,30.001,110.733,7.863472222476473,0
1518674912.3239381,3.689,30.001,110.673,7.9072889023860995,0
1518674917.5813675,3.688,30.001,110.643,7.95110227611456,0
1518674922.839579,3.686,30.001,110.583,7.994922164847854,0
1518674928.09644,3.685,30.001,110.553,8.038730799849104,0
1518674933.3527534,3.683,30.001,110.493,8.08253487096926,0
1518674938.604385,3.682,30.001,110.463,8.126299923588373,0
1518674943.857071,3.681,30.001,110.433,8.170073766198758,0
1518674949.113793,3.679,30.001,110.373,8.213881246818241,0
1518674954.3710985,3.678,30.001,110.343,8.257693585378199,0
1518674959.623867,3.676,30.001,110.283,8.301468115451735,0
1518674964.8794928,3.675,30.001,110.253,8.345266456387707,0
1518674970.1361556,3.674,30.001,110.223,8.389073438298373,0
1518674975.3895593,3.672,30.001,110.163,8.432853263427683,0
1518674980.6470103,3.67,30.001,110.103,8.476666815976039,0
1518674985.904003,3.669,30.001,110.073,8.520476547739309,0
1518674991.1565018,3.668,30.001,110.043,8.564248830642834,0
1518674996.4140203,3.666,30.001,109.983,8.608062945480414,0
1518675001.6716018,3.665,30.001,109.953,8.651877582869465,0
1518675006.9286308,3.663,30.001,109.893,8.695687620613445,0
1518675012.1854405,3.662,30.001,109.863,8.739495828433833,0
1518675017.4424698,3.661,30.001,109.833,8.783305866177813,0
1518675022.6995077,3.659,30.001,109.773,8.827115975449749,0
1518675027.9559407,3.658,30.001,109.743,8.870921042000653,0
1518675033.2085524,3.656,30.001,109.683,8.914694266688958,0
1518675038.4647052,3.655,30.001,109.653,8.95849700063368,0
1518675043.722213,3.653,30.001,109.593,9.002311026061312,0
1518675048.9795,3.652,30.001,109.563,9.04612321759158,0
1518675054.2354507,3.651,30.001,109.533,9.08992426069485,0
1518675059.4929683,3.649,30.001,109.473,9.13373836758488,0
1518675064.7499347,3.648,30.001,109.443,9.1775478807905,0
1518675070.0053427,3.646,30.001,109.383,9.221344409684873,0
1518675075.2609372,3.645,30.001,109.353,9.265142486364779,0
1518675080.5181334,3.644,30.001,109.323,9.3089539248646,0
1518675085.7754164,3.642,30.001,109.263,9.352766068709562,0
1518675091.0325255,3.641,30.001,109.233,9.39657677007404,0
1518675096.2907414,3.639,30.001,109.173,9.440396696558201,0
1518675101.543976,3.638,30.001,109.143,9.48417511099723,0
1518675106.7956517,3.637,30.001,109.113,9.527940535164346,0
1518675112.05394,3.635,30.001,109.053,9.571761061688598,0
1518675117.3118157,3.634,30.001,109.023,9.615578154870871,0
1518675122.5683894,3.633,30.001,108.993,9.659384397659306,0
1518675127.826531,3.631,30.001,108.933,9.70320370224761,0
1518675133.0817058,3.63,30.001,108.903,9.746998285978904,0
1518675138.3387098,3.629,30.001,108.873,9.790808115099672,0
1518675143.595763,3.627,30.001,108.813,9.834618351532423,0
1518675148.8526616,3.626,30.001,108.783,9.87842730244882,0
1518675154.1064858,3.625,30.001,108.753,9.922210628474293,0
1518675159.3641937,3.623,30.001,108.693,9.966026320900722,0
1518675164.6178093,3.622,30.001,108.663,10.009807912373216,0
1518675169.874995,3.62,30.001,108.603,10.053619259476202,0
1518675175.1315067,3.619,30.001,108.573,10.09742498368694,0
1518675180.3887646,3.618,30.001,108.543,10.141236918908692,0
1518675185.641329,3.617,30.001,108.513,10.18500974820634,0
1518675190.8985603,3.615,30.001,108.453,10.228821468844219,0
1518675196.1557853,3.614,30.001,108.423,10.272633137823016,0
1518675201.4098444,3.613,30.001,108.393,10.316418420932893,0
1518675206.6661446,3.611,30.001,108.333,10.360222382774225,0
1518675211.9179857,3.61,30.001,108.303,10.40398918385453,0
1518675217.1765378,3.608,30.001,108.243,10.447811911850376,0
1518675222.4290617,3.607,30.001,108.213,10.491584405364,0
1518675227.688483,3.606,30.001,108.183,10.535414375565585,0
1518675232.9461722,3.605,30.001,108.153,10.579229913014773,0
1518675238.2047122,3.603,30.001,108.093,10.623052541666233,0
1518675243.4568038,3.602,30.001,108.063,10.666821428978645,0
1518675248.7127202,3.601,30.001,108.033,10.710622191930748,0
1518675253.9709883,3.6,30.001,108.003,10.754442551556432,0
1518675259.227139,3.598,30.001,107.943,10.798245277553601,0
1518675264.4816673,3.597,30.001,107.913,10.842034464897848,0
1518675269.7402923,3.596,30.001,107.883,10.885857800881336,0
1518675274.991747,3.595,30.001,107.853,10.929621383203536,0
1518675280.246036,3.593,30.001,107.793,10.97340858564695,0
1518675285.503189,3.592,30.001,107.763,11.017219654585656,0
1518675290.7576365,3.591,30.001,107.733,11.061008176322517,0
1518675296.0095704,3.59,30.001,107.703,11.104775760236585,0
1518675301.2643712,3.588,30.001,107.643,11.148567216606608,0
1518675306.5226204,3.587,30.001,107.613,11.192387423241938,0
1518675311.7795904,3.586,30.001,107.583,11.236196964263987,0
1518675317.03798,3.585,30.001,107.553,11.280018337202408,0
1518675322.2963562,3.584,30.001,107.523,11.323839598875118,0
1518675327.549401,3.582,30.001,107.463,11.36761643373841,0
1518675332.8029244,3.581,30.001,107.433,11.411397254298468,0
1518675338.0585775,3.58,30.001,107.403,11.455195823726527,0
1518675343.3157868,3.579,30.001,107.373,11.499007361570735,0
1518675348.5704756,3.578,30.001,107.343,11.542797894037967,0
1518675353.8275726,3.577,30.001,107.313,11.586608494071172,0
1518675359.0795372,3.575,30.001,107.253,11.63037632237243,0
1518675364.3368137,3.574,30.001,107.223,11.674188422505862,0
1518675369.5929658,3.573,30.001,107.193,11.717991152476808,0
1518675374.8521733,3.572,30.001,107.163,11.761819342426996,0
1518675380.1103299,3.571,30.001,107.133,11.805638774176115,0
1518675385.3646557,3.57,30.001,107.103,11.84942628061335,0
1518675390.6233118,3.569,30.001,107.073,11.893249878866017,0
1518675395.8803432,3.568,30.001,107.043,11.937059932505099,0
1518675401.1365364,3.566,30.001,106.983,11.980863002233844,0
1518675406.3940773,3.565,30.001,106.953,12.024677303838871,0
1518675411.6503432,3.564,30.001,106.923,12.06848097956837,0
1518675416.9038055,3.563,30.001,106.893,12.112261289498285,0
1518675422.1616132,3.562,30.001,106.863,12.156077818404444,0
1518675427.4189825,3.561,30.001,106.833,12.199890683489649,0
1518675432.6731858,3.56,30.001,106.803,12.24367717462726,0
1518675437.931203,3.559,30.001,106.773,12.287495444047062,0
1518675443.1886067,3.558,30.001,106.743,12.33130860319165,0
1518675448.44598,3.557,30.001,106.713,12.375121508014608,0
1518675453.7034268,3.556,30.001,106.683,12.418935024798985,0
1518675458.9586544,3.555,30.001,106.653,12.462730047632466,0
1518675464.2137463,3.554,30.001,106.623,12.506523939926833,0
1518675469.473836,3.552,30.001,106.563,12.55035947738781,0
1518675474.7304044,3.552,30.001,106.563,12.59416568043849,0
1518675479.9830017,3.551,30.001,106.533,12.637938791874195,0
1518675485.240212,3.55,30.001,106.503,12.681750327731514,0
1518675490.4965987,3.549,30.001,106.473,12.72555501677375,0
1518675495.7487328,3.547,30.001,106.413,12.76932426371284,0
1518675501.0050833,3.547,30.001,106.413,12.813128642800592,0
1518675506.262075,3.546,30.001,106.383,12.856938366616312,0
1518675511.5183094,3.545,30.001,106.353,12.900741780076633,0
1518675516.7752187,3.544,30.001,106.323,12.944550820402977,0
1518675522.0315802,3.543,30.001,106.293,12.988355292874452,0
1518675527.2879667,3.542,30.001,106.263,13.032159969995362,0
1518675532.5457366,3.541,30.001,106.233,13.075976182986375,0
1518675537.8011076,3.54,30.001,106.203,13.119772399939375,0
1518675543.0579395,3.539,30.001,106.173,13.16358079452721,0
1518675548.3156934,3.538,30.001,106.143,13.20739687042297,0
1518675553.5723984,3.537,30.001,106.113,13.251204204012762,0
1518675558.829312,3.536,30.001,106.083,13.295013278116196,0
1518675564.0857127,3.535,30.001,106.053,13.33881807445037,0
1518675569.3414953,3.534,30.001,106.023,13.382617724745348,0
1518675574.5948868,3.533,30.001,105.993,13.426397436622057,0
1518675579.8525236,3.533,30.001,105.993,13.470212546890385,0
1518675585.109989,3.532,30.001,105.963,13.514026218652004,0
1518675590.3631947,3.531,30.001,105.933,13.55780439267762,0
1518675595.6199055,3.53,30.001,105.903,13.601611773952717,0
1518675600.8725011,3.529,30.001,105.873,13.645384867506433,0
1518675606.1286595,3.528,30.001,105.843,13.689187645162683,0
1518675611.3861787,3.527,30.001,105.813,13.733001767947814,0
1518675616.642696,3.526,30.001,105.783,13.776807535870082,0
1518675621.9001331,3.525,30.001,105.753,13.820620965231399,0
1518675627.15702,3.525,30.001,105.753,13.86442982475096,0
1518675632.4137082,3.524,30.001,105.723,13.908237019258612,0
1518675637.6686862,3.523,30.001,105.693,13.952029959833762,0
1518675642.9256124,3.522,30.001,105.663,13.995839141229133,0
1518675648.181552,3.521,30.001,105.633,14.039640096909345,0
1518675653.4383254,3.52,30.001,105.603,14.0834480027228,0
1518675658.695668,3.52,30.001,105.603,14.127260651237243,0
1518675663.9494567,3.519,30.001,105.573,14.171043685190222,0
1518675669.2036827,3.518,30.001,105.543,14.214830359121503,0
1518675674.457975,3.517,30.001,105.513,14.258617587394458,0
